time (s)	theta (A)	maj axis/z0	min axis/z0	crossing#mod 255
6854.742284	338.751617	1.521893	0.113053	213
6856.785521	338.790833	1.519941	0.111969	215
6858.828699	338.750214	1.519551	0.111406	217
6860.871346	338.635712	1.518578	0.109832	219
6862.914272	338.755829	1.517924	0.108328	221
6864.956688	338.870178	1.517933	0.107705	223
6866.998502	339.056488	1.515406	0.106788	225
6869.040479	339.319183	1.514929	0.104758	227
6871.082186	339.580109	1.512973	0.103480	229
6873.124512	339.765930	1.511086	0.101793	231
6875.166730	339.806458	1.508711	0.099215	233
6877.210680	339.711060	1.507939	0.096720	235
6879.255256	339.318878	1.508728	0.094847	237
6881.300397	338.851807	1.507787	0.093267	239
6883.345688	338.319824	1.506908	0.091852	241
6885.390839	337.744141	1.506082	0.091159	243
6887.435645	337.256927	1.504321	0.090701	245
6889.479602	336.949677	1.500371	0.090118	247
6891.523824	336.662567	1.498242	0.089887	249
6893.566308	336.607574	1.496217	0.088779	251
6895.608685	336.608826	1.494150	0.087632	253
6897.650990	336.663422	1.492290	0.087151	255
6899.693175	336.793610	1.489896	0.086806	1
6901.735414	336.845825	1.488648	0.085326	3
6903.777887	336.949799	1.485922	0.083901	5
6905.820316	337.035095	1.483023	0.082438	7
6907.862937	337.141632	1.481261	0.081129	9
6909.905711	337.250702	1.480788	0.080196	11
6911.948165	337.409790	1.477926	0.078847	13
6913.990705	337.560455	1.477782	0.077284	15
6916.032476	337.773010	1.478498	0.075381	17
6918.074149	338.060791	1.480022	0.073763	19
6920.114853	338.296631	1.481814	0.072459	21
6922.155184	338.585632	1.482337	0.070639	23
6924.195094	338.841888	1.481868	0.069466	25
6926.234924	339.041870	1.480252	0.068879	27
6928.274846	339.188263	1.477121	0.067696	29
6930.315145	339.271271	1.471866	0.067377	31
6932.356114	339.316620	1.466751	0.066281	33
6934.397461	339.378448	1.460596	0.067001	35
6936.439516	339.365631	1.456960	0.066361	37
6938.482167	339.345093	1.455016	0.065829	39
6940.524284	339.322754	1.453530	0.064433	41
6942.567162	339.363617	1.451632	0.062888	43
6944.609408	339.455353	1.448395	0.061525	45
6946.651760	339.545593	1.446697	0.060953	47
6948.694101	339.628693	1.445332	0.059724	49
6950.736196	339.753601	1.442913	0.058256	51
6952.778588	339.821014	1.443093	0.056626	53
6954.821149	339.862457	1.443717	0.055384	55
6956.864111	339.820038	1.443180	0.053449	57
6958.908002	339.768768	1.443829	0.051709	59
6960.952023	339.591888	1.443397	0.050133	61
6962.996602	339.372742	1.444449	0.048594	63
6965.041621	339.069702	1.443713	0.047542	65
6967.086178	338.808838	1.441729	0.046307	67
6969.130326	338.529205	1.438297	0.045440	69
6971.174550	338.344116	1.434912	0.044592	71
6973.218208	338.171143	1.433025	0.043783	73
6975.261436	338.078796	1.430261	0.042934	75
6977.304286	338.050568	1.427766	0.042273	77
6979.346777	338.026733	1.424316	0.041793	79
6981.388861	338.035767	1.423524	0.040785	81
6983.431550	338.033813	1.423102	0.040505	83
6985.473902	338.132568	1.421456	0.039472	85
6987.516461	338.214966	1.420020	0.038122	87
6989.558918	338.282471	1.419197	0.037162	89
6991.600897	338.385162	1.417608	0.035824	91
6993.643105	338.535065	1.416410	0.034808	93
6995.685148	338.651154	1.417744	0.033702	95
6997.726497	338.743988	1.418125	0.032800	97
6999.767782	338.883301	1.418938	0.031315	99
7001.808481	339.010864	1.419565	0.029942	101
7003.848868	339.135742	1.418675	0.028629	103
7005.889181	339.202972	1.417829	0.027408	105
7007.929352	339.238739	1.417400	0.026398	107
7009.969782	339.220764	1.415962	0.025322	109
7012.010354	339.190430	1.411729	0.024145	111
7014.050932	339.095917	1.406377	0.023036	113
7016.092403	339.071594	1.401184	0.022510	115
7018.133765	339.025513	1.397158	0.021722	117
7020.175788	338.953400	1.393814	0.020801	119
7022.217807	338.964600	1.391335	0.019562	121
7024.260292	338.909393	1.388403	0.018432	123
7026.302446	338.930542	1.386898	0.017644	125
7028.344604	338.891541	1.385011	0.016484	127
7030.387356	338.959564	1.383664	0.015123	129
7032.429811	338.981415	1.383046	0.014279	131
7034.472119	338.974945	1.380826	0.013220	133
7036.515102	339.185028	1.380928	0.012290	135
7038.559001	339.022797	1.381149	0.011577	137
7040.602209	339.018677	1.381287	0.010352	139
7042.645900	339.049011	1.379141	0.009331	141
7044.689795	338.986664	1.380528	0.008374	143
7046.733857	338.907318	1.380185	0.007157	145
7048.777989	338.903717	1.378110	0.005703	147
7050.822035	338.799866	1.376189	0.004913	149
7052.865977	338.712952	1.374629	0.003918	151
7054.909519	338.603149	1.372093	0.002050	153
7056.952914	338.568756	1.369324	0.000803	155
7058.996273	338.522980	1.367409	-0.000550	157
7061.039092	338.535767	1.363646	-0.001581	159
7063.081819	338.473816	1.361766	-0.001763	161
7065.124577	338.489075	1.360187	-0.002129	163
7067.166479	338.463013	1.358305	-0.002257	165
7069.209065	338.463837	1.356350	-0.002964	167
7071.251140	338.551788	1.355010	-0.003859	169
7073.293402	338.608063	1.352474	-0.004522	171
7075.335087	338.669342	1.349952	-0.005024	173
7077.376957	338.734314	1.349861	-0.005535	175
7079.418196	338.750580	1.349338	-0.005700	177
7081.459658	338.751831	1.350092	-0.006559	179
7083.500390	338.740631	1.350667	-0.007440	181
7085.541276	338.716705	1.349897	-0.008097	183
7087.581982	338.642273	1.348770	-0.009219	185
7089.622667	338.515015	1.348346	-0.011180	187
7091.663325	338.500122	1.347515	-0.012103	189
7093.703965	338.297424	1.343760	-0.012405	191
7095.744913	338.185211	1.340462	-0.013337	193
7097.785918	338.066010	1.337375	-0.013874	195
7099.827078	337.973572	1.333253	-0.014087	197
7101.868525	337.859741	1.329608	-0.014895	199
7103.909875	337.790344	1.326908	-0.015693	201
7105.952004	337.720642	1.324187	-0.016144	203
7107.993818	337.649811	1.321666	-0.017021	205
7110.035854	337.606873	1.320598	-0.017922	207
7112.078149	337.551453	1.319642	-0.019079	209
7114.120305	337.578857	1.317692	-0.019535	211
7116.162943	337.552368	1.316278	-0.020062	213
7118.205403	337.582581	1.314381	-0.020900	215
7120.248332	337.562805	1.314028	-0.021639	217
7122.291479	337.638336	1.312410	-0.022198	219
7124.334564	337.658051	1.312531	-0.023159	221
7126.378173	337.689056	1.312153	-0.023006	223
7128.421968	337.710632	1.311380	-0.023920	225
7130.464974	337.685516	1.311791	-0.024182	227
7132.509388	337.685822	1.311208	-0.025226	229
7134.552424	337.674408	1.309075	-0.026455	231
7136.596356	337.728149	1.307039	-0.026240	233
7138.639372	337.711426	1.303813	-0.027779	235
7140.682599	337.719757	1.302801	-0.028305	237
7142.725956	337.691498	1.300996	-0.029425	239
7144.769086	337.704346	1.299672	-0.029825	241
7146.811589	337.699554	1.298403	-0.030239	243
7148.854105	337.664886	1.297478	-0.031081	245
7150.896833	337.659424	1.294984	-0.030791	247
7152.939072	337.606232	1.294098	-0.030580	249
7154.980953	337.580139	1.291890	-0.031208	251
7157.023323	337.495911	1.291394	-0.031231	253
7159.064875	337.524750	1.290696	-0.032430	255
7161.106859	337.525116	1.290144	-0.032750	1
7163.148398	337.442963	1.288345	-0.033900	3
7165.190101	337.465454	1.287952	-0.034544	5
7167.231060	337.361298	1.287947	-0.034684	7
7169.272498	337.292297	1.286813	-0.036033	9
7171.313061	337.169922	1.286048	-0.036513	11
